TITLE,DL121_D127W_dark_melt
DATA TYPE,
ORIGIN,JASCO
OWNER,
DATE,24/04/11
TIME,17:15:38
SPECTROMETER/DATA SYSTEM,
LOCALE,1033
XUNITS,Temperature[C]
YUNITS,CD [mdeg]
Y2UNITS,HT [V]
FIRSTX,   10.0200
LASTX,   85.0200
NPOINTS,     151
XYDATA
10.0200,-39.7242,325.856
10.5300,-39.5993,325.898
11.0100,-39.0434,325.873
11.4900,-39.4513,325.886
12.0000,-39.2737,325.882
12.5100,-39.6335,325.894
13.0000,-39.1833,325.917
13.5200,-38.8135,325.849
14.0000,-38.6082,325.861
14.5000,-39.1426,325.885
15.0000,-39.0594,325.922
15.5200,-39.0461,325.899
16.0000,-38.7608,325.833
16.5000,-39.2238,325.893
17.0000,-38.6146,325.904
17.5100,-38.9546,325.877
17.9900,-38.6885,325.908
18.5200,-38.4714,325.904
19.0200,-38.0536,325.878
19.5200,-38.0019,325.933
20.0000,-37.7736,325.924
20.5000,-38.4021,325.919
21.0000,-37.8273,325.854
21.5000,-37.6073,325.898
22.0100,-37.9248,325.846
22.5000,-37.8349,325.882
22.9900,-37.7969,325.88
23.5100,-37.2874,325.878
23.9800,-36.8179,325.933
24.5000,-36.5617,325.949
25.0100,-36.7726,325.981
25.5000,-37.0835,325.91
26.0200,-36.7777,325.985
26.4900,-36.7152,325.997
27.0000,-36.9012,326.03
27.5100,-36.4295,326.142
27.9900,-36.3199,326.09
28.5100,-35.8536,326.205
29.0200,-36.278,326.159
29.4900,-36.0216,326.218
30.0100,-35.5025,326.294
30.5100,-35.9989,326.308
31.0000,-35.0061,326.477
31.4900,-35.3114,326.412
32.0100,-34.9646,326.407
32.4900,-35.468,326.523
33.0100,-34.4815,326.495
33.5100,-34.9678,326.551
34.0000,-34.8906,326.532
34.5100,-33.8671,326.739
35.0100,-34.8379,326.848
35.5300,-33.7623,327.006
36.0200,-34.2266,327.056
36.5000,-33.6191,327.296
36.9900,-33.2711,327.615
37.5100,-32.8617,328
37.9900,-33.0093,328.447
38.5100,-32.2493,329.119
39.0100,-31.7919,329.842
39.5000,-31.6399,330.713
40.0200,-31.3182,331.625
40.5000,-31.1063,332.81
40.9900,-30.8402,334.189
41.5000,-30.094,336.262
41.9900,-30.3065,338.114
42.5100,-30.3897,340.724
43.0000,-30.2952,343.795
43.5000,-29.4768,346.773
44.0000,-30.3114,350.28
44.4800,-29.5789,354.564
44.9900,-29.4001,360.053
45.5000,-30.5741,364.491
46.0000,-29.2556,368.81
46.4800,-29.2382,372.883
46.9900,-29.0617,376.776
47.4900,-29.6905,380.31
48.0100,-30.191,385.209
48.5100,-29.6256,390.135
48.9800,-28.4587,395.286
49.4700,-28.6921,399.129
49.9900,-26.2266,399.693
50.5100,-26.5685,397.712
51.0900,-24.4653,395.926
51.5100,-23.948,392.395
52.0000,-23.0606,388.395
52.5000,-22.5882,385.003
52.9800,-19.6171,381.245
53.5000,-18.3228,377.497
53.9700,-17.7354,373.62
54.5000,-16.2393,366.543
55.0100,-15.1132,362.873
55.5100,-13.1812,354.249
56.0000,-12.0246,351.227
56.5200,-10.4102,336.332
57.0000,-12.0937,356.458
57.5100,-9.2072,320.271
58.0200,-8.85204,317.7
58.4800,-7.85099,313.961
59.0300,-7.70602,311.927
59.4800,-7.71739,310.997
60.0000,-7.53962,309.101
60.5100,-6.60499,307.658
60.9900,-6.62027,306.556
61.4800,-6.81207,305.693
61.9900,-6.41062,305.066
62.5000,-6.55918,304.505
62.9800,-5.99539,304.038
63.5000,-6.58648,303.215
64.0100,-6.55659,302.732
64.5100,-6.29857,301.863
64.9800,-6.18872,301.307
65.4700,-5.99191,301.351
65.9800,-5.96361,300.81
66.4800,-6.31609,299.683
67.0300,-6.31117,299.409
67.5000,-6.00891,299.414
68.1100,-6.10915,298.862
68.4800,-5.8556,298.468
69.0100,-5.81296,298.282
69.5100,-6.17902,297.732
69.9900,-5.9253,297.168
70.4800,-5.59368,296.865
71.0000,-5.49933,296.837
71.5000,-6.14818,296.573
71.9700,-5.32716,296.39
72.5100,-6.13548,296.36
73.0100,-6.31421,296.163
73.5000,-5.68285,295.91
74.0100,-5.56782,295.683
74.6100,-5.60132,295.489
75.0000,-5.33057,295.404
75.5100,-5.79716,295.18
75.9800,-5.44281,294.975
76.5500,-5.02797,294.73
77.0300,-5.62558,294.564
77.5100,-5.47985,294.294
78.0000,-5.29438,294.265
78.5100,-5.61688,293.941
79.0200,-5.57633,293.792
79.5200,-5.53686,293.622
80.0100,-5.49264,293.321
80.5200,-5.35407,293.499
81.0000,-5.24589,293.105
81.5100,-5.42569,293.17
82.0100,-5.30587,293.211
82.6400,-5.37099,292.912
83.0000,-5.22833,293.068
83.5200,-5.18924,292.796
84.0000,-4.84448,292.721
84.6000,-5.10724,292.743
85.0200,-5.51127,292.603

##### Extended Information
[Comments]
Sample name,DL121_D127W_dark_melt
Comment
User
Division
Company,UT Southwestern Medical Center at Dallas

[Detailed Information]
Creation date,4/11/2024 5:15 PM

Data array type,Non-linear data array * 2
Horizontal axis,Temperature [C]
Vertical axis(1),CD [mdeg]
Vertical axis(2),HT [V]
Start,10.02 C
End,85.02 C
Data points,151     

[Measurement Information]
Instrument name,Jasco CD
Model name,J-815
Serial No.,B064061168

Accessory,CDF-426S
Accessory S/N,A00861183
  Control sonsor,Holder
  Monitor sensor,Holder
  Start Mode,Keep target temperature +/-0.10 deg C while 5 seconds
  Cell length,10 mm

Measurement date,4/11/2024 5:15 PM

Photometric mode,CD, HT
Sensitivity,Standard
D.I.T.,1 sec
Bandwidth,1.00 nm
Monitor wavelength,222.1 nm
Baseline correction,None
Shutter control,Manual
CD detector,PMT
PMT voltage,Auto

Concentration,0.606 (w/v)%
Solvent,50mM sodium phosphate ph 6.5 100mM NaF

