TITLE,DL121_R98M_dark_melt
DATA TYPE,
ORIGIN,JASCO
OWNER,
DATE,24/04/10
TIME,14:29:33
SPECTROMETER/DATA SYSTEM,
LOCALE,1033
XUNITS,Temperature[C]
YUNITS,CD [mdeg]
Y2UNITS,HT [V]
FIRSTX,   10.0100
LASTX,   84.9900
NPOINTS,     151
XYDATA
10.0100,-66.1201,361.635
10.5000,-66.3552,361.34
11.0000,-65.5747,361.345
11.5100,-65.9875,361.237
12.0000,-65.3645,361.349
12.5200,-66.2307,361.301
13.0000,-65.4587,361.351
13.5100,-64.9883,361.383
14.0100,-64.9678,361.488
14.5100,-64.714,361.47
15.0200,-65.2231,361.458
15.5300,-65.3607,361.516
16.0200,-64.7809,361.539
16.5200,-65.0907,361.515
17.0100,-65.4847,361.579
17.5100,-63.4325,361.586
18.0000,-63.2105,361.63
18.4900,-63.6218,361.631
18.9900,-63.3948,361.662
19.5000,-62.5047,361.692
20.0100,-62.5442,361.752
20.5300,-62.6779,361.66
21.0200,-62.4527,361.763
21.6100,-63.1009,361.889
22.1000,-61.5768,361.868
22.5200,-61.8247,361.979
22.9900,-61.1549,362.018
23.5000,-61.5488,362.045
24.0000,-60.7716,362.152
24.5100,-60.9283,362.216
25.0000,-61.4273,362.266
25.5000,-59.6443,362.347
26.0000,-59.7146,362.44
26.4900,-59.5494,362.485
26.9900,-58.9187,362.538
27.5100,-59.2797,362.68
28.0000,-58.4387,362.738
28.5000,-57.8665,362.923
29.0200,-57.6403,363.028
29.5100,-57.9604,363.133
30.0100,-56.6018,363.265
30.5000,-56.8594,363.412
31.0300,-54.9765,363.591
31.4900,-55.2884,363.815
31.9900,-54.3068,364.018
32.5000,-55.2123,364.172
33.0000,-54.1825,364.434
33.5100,-53.4356,364.761
34.0100,-53.6162,365.254
34.5100,-52.3232,365.85
35.0100,-53.2143,366.325
35.5100,-51.4325,366.882
36.0100,-51.6483,367.445
36.5200,-51.2483,367.811
37.0200,-50.9076,368.319
37.5000,-50.6018,368.826
38.0000,-48.8729,369.335
38.5200,-48.1975,369.791
39.0000,-49.0152,370.507
39.5100,-48.687,371.204
40.0000,-48.3297,371.936
40.4800,-46.8196,372.897
41.0000,-47.4964,373.808
41.5000,-46.7552,374.703
42.0100,-46.0228,375.704
42.5100,-47.646,376.802
43.0000,-47.1771,378.04
43.5100,-46.3232,379.117
43.9900,-47.1931,380.222
44.5100,-46.5776,381.258
45.0000,-46.8441,382.352
45.5000,-46.2494,383.421
46.0000,-46.813,384.485
46.4900,-46.8947,385.585
47.0000,-46.6606,386.574
47.4800,-47.1853,387.527
48.0200,-47.4059,388.643
48.4900,-48.5622,389.821
49.0000,-48.4285,391.272
49.5300,-48.1799,392.708
49.9900,-48.833,394.302
50.4700,-47.9995,395.685
51.0100,-49.2483,397.064
51.5100,-49.469,398.5
52.0200,-49.432,400.051
52.5000,-49.2194,401.618
52.9900,-49.0508,403.384
53.5100,-49.3277,405.111
54.0000,-50.3504,406.639
54.5300,-49.8282,407.879
55.0000,-50.307,409.718
55.5100,-51.1355,412.705
56.0100,-50.2382,415.049
56.5000,-51.5874,416.496
57.1000,-51.2074,417.536
57.5100,-50.5379,419.83
58.0100,-51.4438,421.786
58.5300,-50.6263,423.725
59.0100,-51.3565,425.188
59.5300,-51.8147,427.302
60.0200,-50.4076,429.554
60.5000,-49.6492,431.305
61.0100,-51.6693,433.001
61.5200,-50.9916,434.53
62.0000,-51.0856,435.925
62.5200,-50.2675,437.228
62.9900,-51.0514,438.321
63.5000,-49.615,438.844
64.0000,-49.651,439.377
64.4900,-50.6987,439.612
65.0200,-50.7602,439.72
65.4900,-48.6207,439.714
66.0800,-48.5679,439.67
66.5000,-48.6405,439.586
66.9600,-49.7664,439.329
67.5200,-49.5104,439.238
68.0000,-49.0057,437.967
68.4500,-45.5578,437.052
69.1200,-44.0514,436.068
69.4700,-45.3175,434.463
70.1100,-45.9121,432.602
70.4900,-43.4754,430.063
70.9900,-41.5107,425.824
71.4900,-39.2927,417.045
72.0000,-33.7428,404.361
72.5000,-30.8352,390.456
73.0200,-26.0979,373.461
73.5500,-24.213,362.574
74.0100,-23.0626,355.255
74.5400,-21.4092,350.188
74.9900,-20.6122,346.727
75.5300,-18.8536,343.047
76.0100,-18.1879,339.484
76.5000,-17.9171,335.554
77.0000,-16.5693,332.872
77.5400,-15.9298,329.574
78.0000,-15.1078,326.646
78.5100,-14.8954,325.964
79.0100,-14.5406,324.996
79.5400,-13.725,322.66
80.0200,-13.496,320.825
80.4800,-12.8354,318.808
81.0000,-12.1716,317.689
81.4800,-11.4993,315.542
82.0100,-11.5149,315.512
82.6000,-11.2288,315.026
83.0400,-10.9122,315.076
83.5200,-10.5701,314.145
84.0400,-10.4555,313.142
84.5300,-10.1603,312.194
84.9900,-10.112,311.002

##### Extended Information
[Comments]
Sample name,DL121_R98M_dark_melt
Comment
User
Division
Company,UT Southwestern Medical Center at Dallas

[Detailed Information]
Creation date,4/10/2024 2:29 PM

Data array type,Non-linear data array * 2
Horizontal axis,Temperature [C]
Vertical axis(1),CD [mdeg]
Vertical axis(2),HT [V]
Start,10.01 C
End,84.99 C
Data points,151     

[Measurement Information]
Instrument name,Jasco CD
Model name,J-815
Serial No.,B064061168

Accessory,CDF-426S
Accessory S/N,A00861183
  Control sonsor,Holder
  Monitor sensor,Holder
  Start Mode,Keep target temperature +/-0.10 deg C while 5 seconds
  Cell length,10 mm

Measurement date,4/10/2024 2:29 PM

Photometric mode,CD, HT
Sensitivity,Standard
D.I.T.,1 sec
Bandwidth,1.00 nm
Monitor wavelength,222.1 nm
Baseline correction,None
Shutter control,Manual
CD detector,PMT
PMT voltage,Auto

Concentration,0.88 (w/v)%
Solvent,50mM sodium phosphate ph 6.5 100mM NaF

